MASS (IN MSUN)=  1.000
 X=  .740 Y=  .240
 L=  1000.
 GUESSED PERIOD=  1.000000E+02 SEC
 NTRY=  1 EIG=  3.9478418E-03 DEIG=  3.05150E-06
 NTRY=  2 EIG=  3.9508933E-03 DEIG= -2.16696E-08
 FINAL VALUES: PERIOD=   9.996165E+01 EIG=  3.950871589E-03
  9 NODES IN Y1     8 NODES IN Y2 
     PHASE DIAGRAM MODE  -7
                   2(N, R/R* ,  Y1  ,  Y2)
   2   .027549 -1.9558E+14 -3.3662E+13   3   .035025 -1.9761E+14 -3.3832E+13
   4   .040407 -1.9798E+14 -3.4118E+13   5   .044804 -1.9831E+14 -3.4357E+13
   6   .048615 -1.9861E+14 -3.4575E+13   7   .052033 -1.9889E+14 -3.4780E+13
   8   .055169 -1.9916E+14 -3.4978E+13   9   .058092 -1.9942E+14 -3.5170E+13
  10   .060850 -1.9968E+14 -3.5360E+13  11   .063476 -1.9992E+14 -3.5548E+13
  12   .065994 -2.0016E+14 -3.5735E+13  13   .068425 -2.0040E+14 -3.5923E+13
  14   .070782 -2.0063E+14 -3.6110E+13  15   .073078 -2.0086E+14 -3.6299E+13
  16   .075322 -2.0109E+14 -3.6490E+13  17   .077523 -2.0131E+14 -3.6682E+13
  18   .079686 -2.0153E+14 -3.6876E+13  19   .081818 -2.0176E+14 -3.7073E+13
  20   .083924 -2.0198E+14 -3.7273E+13  21   .086008 -2.0220E+14 -3.7475E+13
  22   .088073 -2.0242E+14 -3.7681E+13  23   .090124 -2.0264E+14 -3.7891E+13
  24   .092162 -2.0285E+14 -3.8105E+13  25   .094192 -2.0307E+14 -3.8322E+13
  26   .096214 -2.0329E+14 -3.8544E+13  27   .098232 -2.0351E+14 -3.8770E+13
  28   .100248 -2.0372E+14 -3.9002E+13  29   .102262 -2.0394E+14 -3.9238E+13
  30   .104278 -2.0416E+14 -3.9479E+13  31   .106296 -2.0437E+14 -3.9726E+13
  32   .108318 -2.0459E+14 -3.9979E+13  33   .110346 -2.0481E+14 -4.0238E+13
  34   .112381 -2.0502E+14 -4.0503E+13  35   .114424 -2.0524E+14 -4.0775E+13
  36   .116477 -2.0546E+14 -4.1054E+13  37   .118540 -2.0567E+14 -4.1340E+13
  38   .120615 -2.0589E+14 -4.1633E+13  39   .122703 -2.0611E+14 -4.1934E+13
  40   .124805 -2.0633E+14 -4.2244E+13  41   .126921 -2.0654E+14 -4.2562E+13
  42   .129054 -2.0676E+14 -4.2889E+13  43   .131205 -2.0698E+14 -4.3226E+13
  44   .133373 -2.0720E+14 -4.3572E+13  45   .135560 -2.0741E+14 -4.3928E+13
  46   .137768 -2.0763E+14 -4.4295E+13  47   .139996 -2.0785E+14 -4.4673E+13
  48   .142247 -2.0807E+14 -4.5063E+13  49   .144520 -2.0829E+14 -4.5465E+13
  50   .146818 -2.0851E+14 -4.5879E+13  51   .149141 -2.0873E+14 -4.6307E+13
  52   .151489 -2.0895E+14 -4.6749E+13  53   .153865 -2.0917E+14 -4.7205E+13
  54   .156269 -2.0940E+14 -4.7677E+13  55   .158702 -2.0962E+14 -4.8164E+13
  56   .161165 -2.0985E+14 -4.8669E+13  57   .163659 -2.1007E+14 -4.9191E+13
  58   .166185 -2.1030E+14 -4.9732E+13  59   .168745 -2.1053E+14 -5.0292E+13
  60   .171339 -2.1076E+14 -5.0873E+13  61   .173981 -2.1098E+14 -5.1481E+13
  62   .176649 -2.1121E+14 -5.2105E+13  63   .179354 -2.1145E+14 -5.2753E+13
  64   .182099 -2.1169E+14 -5.3426E+13  65   .184885 -2.1193E+14 -5.4125E+13
  66   .187712 -2.1218E+14 -5.4853E+13  67   .190583 -2.1243E+14 -5.5610E+13
  68   .193499 -2.1269E+14 -5.6399E+13  69   .196460 -2.1295E+14 -5.7220E+13
  70   .199470 -2.1322E+14 -5.8077E+13  71   .202528 -2.1351E+14 -5.8971E+13
  72   .205638 -2.1379E+14 -5.9904E+13  73   .208800 -2.1409E+14 -6.0879E+13
  74   .212016 -2.1441E+14 -6.1899E+13  75   .215288 -2.1473E+14 -6.2965E+13
  76   .218617 -2.1506E+14 -6.4082E+13  77   .222006 -2.1542E+14 -6.5252E+13
  78   .225457 -2.1578E+14 -6.6479E+13  79   .228972 -2.1617E+14 -6.7767E+13
  80   .232552 -2.1657E+14 -6.9119E+13  81   .236200 -2.1700E+14 -7.0540E+13
  82   .239918 -2.1744E+14 -7.2035E+13  83   .243709 -2.1792E+14 -7.3608E+13
  84   .247575 -2.1841E+14 -7.5265E+13  85   .251518 -2.1894E+14 -7.7011E+13
  86   .255541 -2.1949E+14 -7.8854E+13  87   .259647 -2.2008E+14 -8.0799E+13
  88   .263839 -2.2069E+14 -8.2854E+13  89   .268119 -2.2134E+14 -8.5027E+13
  90   .272491 -2.2203E+14 -8.7326E+13  91   .276958 -2.2276E+14 -8.9760E+13
  92   .281522 -2.2352E+14 -9.2339E+13  93   .286188 -2.2433E+14 -9.5074E+13
  94   .290959 -2.2518E+14 -9.7974E+13  95   .295838 -2.2607E+14 -1.0105E+14
  96   .300830 -2.2700E+14 -1.0432E+14  97   .305937 -2.2797E+14 -1.0780E+14
  98   .311165 -2.2899E+14 -1.1149E+14  99   .316517 -2.3005E+14 -1.1542E+14
 100   .321997 -2.3115E+14 -1.1960E+14 101   .327610 -2.3229E+14 -1.2405E+14
 102   .333360 -2.3346E+14 -1.2879E+14 103   .339253 -2.3465E+14 -1.3383E+14
 104   .345292 -2.3588E+14 -1.3920E+14 105   .351482 -2.3712E+14 -1.4491E+14
 106   .357830 -2.3837E+14 -1.5100E+14 107   .364339 -2.3962E+14 -1.5747E+14
 108   .371014 -2.4085E+14 -1.6435E+14 109   .377863 -2.4206E+14 -1.7166E+14
 110   .384888 -2.4322E+14 -1.7943E+14 111   .392097 -2.4432E+14 -1.8766E+14
 112   .399494 -2.4534E+14 -1.9638E+14 113   .407085 -2.4624E+14 -2.0560E+14
 114   .414876 -2.4701E+14 -2.1532E+14 115   .422873 -2.4760E+14 -2.2556E+14
 116   .431080 -2.4799E+14 -2.3630E+14 117   .439503 -2.4813E+14 -2.4752E+14
 118   .448147 -2.4798E+14 -2.5922E+14 119   .457019 -2.4749E+14 -2.7133E+14
 120   .466122 -2.4661E+14 -2.8382E+14 121   .475463 -2.4528E+14 -2.9659E+14
 122   .485044 -2.4345E+14 -3.0956E+14 123   .494872 -2.4107E+14 -3.2260E+14
 124   .504949 -2.3806E+14 -3.3555E+14 125   .515279 -2.3437E+14 -3.4822E+14
 126   .525866 -2.2995E+14 -3.6040E+14 127   .536711 -2.2474E+14 -3.7184E+14
 128   .547817 -2.1869E+14 -3.8224E+14 129   .559184 -2.1178E+14 -3.9128E+14
 130   .570812 -2.0398E+14 -3.9861E+14 131   .582701 -1.9530E+14 -4.0388E+14
 132   .594850 -1.8574E+14 -4.0670E+14 133   .607254 -1.7536E+14 -4.0672E+14
 134   .619910 -1.6421E+14 -4.0360E+14 135   .632811 -1.5240E+14 -3.9706E+14
 136   .645951 -1.4005E+14 -3.8690E+14 137   .659320 -1.2733E+14 -3.7302E+14
 138   .672906 -1.1440E+14 -3.5545E+14 139   .686695 -1.0147E+14 -3.3439E+14
 140   .700671 -8.8743E+13 -3.1018E+14 141   .714814 -7.6442E+13 -2.8333E+14
 142   .729098 -6.4769E+13 -2.5451E+14 143   .743495 -5.3910E+13 -2.2450E+14
 144   .757968 -4.4018E+13 -1.9416E+14 145   .772470 -3.5204E+13 -1.6437E+14
 146   .786943 -2.7532E+13 -1.3596E+14 147   .801303 -2.1015E+13 -1.0963E+14
 148   .815427 -1.5609E+13 -8.5902E+13 149   .829108 -1.1236E+13 -6.5105E+13
 150   .842154 -7.8526E+12 -4.7806E+13 151   .854548 -5.3427E+12 -3.4092E+13
 152   .866295 -3.5332E+12 -2.3577E+13 153   .877399 -2.2688E+12 -1.5801E+13
 154   .887867 -1.4128E+12 -1.0251E+13 155   .897706 -8.5213E+11 -6.4307E+12
 156   .906926 -4.9709E+11 -3.8969E+12 157   .915541 -2.8002E+11 -2.2781E+12
 158   .923563 -1.5205E+11 -1.2831E+12 159   .931009 -7.9431E+10 -6.9509E+11
 160   .937896 -3.9820E+10 -3.6153E+11 161   .944243 -1.9100E+10 -1.8012E+11
 162   .950072 -8.7330E+09 -8.5725E+10 163   .955404 -3.7867E+09 -3.8827E+10
 164   .960265 -1.5461E+09 -1.6650E+10 165   .964680 -5.8821E+08 -6.7096E+09
 166   .968680 -2.0518E+08 -2.5125E+09 167   .972294 -6.4045E+07 -8.6007E+08
 168   .975556 -1.7268E+07 -2.6330E+08 169   .978497 -3.8180E+06 -7.0191E+07
 170   .981141 -6.2576E+05 -1.5764E+07 171   .983505 -4.9603E+04 -2.8092E+06
 172   .985603  1.0364E+04 -3.2217E+05 173   .987450  4.3613E+03  7.4432E+03
 174   .989075  7.3870E+01  1.1107E+04 175   .990506 -3.3212E+02  2.3445E+02
 176   .991776 -1.4446E+01 -8.5372E+02 177   .992907  4.8517E+01  2.9561E+00
 178   .993921 -1.6527E-01  1.2644E+02 179   .994830 -1.1559E+01 -1.0415E+01
 180   .995648  1.0083E+00 -2.9553E+01 181   .996385  4.0435E+00  5.5342E+00
 182   .997050 -6.9040E-01  1.0007E+01 183   .997650 -1.9721E+00 -2.8098E+00
 184   .998187  3.8740E-01 -4.7416E+00 185   .998663  1.3169E+00  1.3515E+00
 186   .999007  2.3669E-01  3.2735E+00 187   .999259 -7.9166E-01  1.6628E+00
 188   .999444 -1.1397E+00 -4.1756E-01 189   .999581 -9.9285E-01 -1.7531E+00
 190   .999684 -6.4100E-01 -2.3103E+00 191   .999761 -2.7015E-01 -2.3708E+00
 192   .999819  3.9225E-02 -2.1905E+00 193   .999863  2.7550E-01 -1.9297E+00
 194   .999896  4.5575E-01 -1.6898E+00 195   .999923  5.9809E-01 -1.5073E+00
 196   .999945  7.1339E-01 -1.3630E+00 197   .999962  8.0754E-01 -1.2391E+00
 198   .999977  8.8466E-01 -1.1307E+00 199   .999990  9.4795E-01 -1.0357E+00
 200  1.000000  1.0000E+00 -9.5260E-01


